* Measurement data measured by REW V5.20.13
* Source: C:\Users\kurin\Desktop\Targets and Curves\Resolve\Img\Files\DT880_250Ohm_SPL.txt
* Format: Comma/Tab/Space delimited data
* Dated: Aug 14, 2023 3:10:50 PM
* REW Settings:
*  C-weighting compensation: Off
*  Target level: 75.0 dB
* Note: ; Measurement imported from C:\Users\kurin\Desktop\Targets and Curves\Resolve\Img\Files\DT880_250Ohm_SPL.txt Format: Comma/Tab/Space delimited data 623 values loaded, 5 Hz to 39,792 Hz log spaced 
* Measurement: DT880_250Ohm_SPL
* Smoothing: 1/48 octave
* Frequency Step: 1/96 octave
* Start Frequency: 5.000 Hz
*
* Freq(Hz) SPL(dB) Phase(degrees)
5.000000 76.146 28.8310
5.036232 76.156 28.8271
5.072727 76.166 28.8230
5.109486 76.178 28.8183
5.146511 76.191 28.8130
5.183805 76.207 28.8071
5.221369 76.224 28.8010
5.259205 76.242 28.7950
5.297316 76.261 28.7890
5.335702 76.282 28.7830
5.374367 76.303 28.7770
5.413311 76.324 28.7710
5.452538 76.344 28.7650
5.492050 76.365 28.7590
5.531847 76.385 28.7530
5.571934 76.406 28.7470
5.612310 76.426 28.7410
5.652979 76.447 28.7350
5.693943 76.467 28.7290
5.735204 76.488 28.7230
5.776763 76.508 28.7170
5.818624 76.528 28.7110
5.860788 76.549 28.7050
5.903258 76.570 28.6991
5.946035 76.591 28.6930
5.989123 76.612 28.6865
6.032523 76.632 28.6800
6.076237 76.652 28.6740
6.120268 76.673 28.6680
6.164618 76.693 28.6616
6.209289 76.714 28.6550
6.254284 76.734 28.6485
6.299605 76.755 28.6420
6.345255 76.775 28.6355
6.391235 76.796 28.6290
6.437549 76.816 28.6226
6.484198 76.837 28.6160
6.531185 76.858 28.6090
6.578513 76.879 28.6020
6.626183 76.900 28.5955
6.674199 76.920 28.5890
6.722563 76.940 28.5821
6.771278 76.961 28.5750
6.820345 76.981 28.5680
6.869768 77.002 28.5610
6.919549 77.022 28.5540
6.969691 77.043 28.5470
7.020196 77.063 28.5401
7.071068 77.084 28.5330
7.122308 77.104 28.5255
7.173919 77.125 28.5180
7.225904 77.146 28.5110
7.278266 77.167 28.5040
7.331007 77.188 28.4966
7.384131 77.208 28.4890
7.437639 77.228 28.4815
7.491535 77.249 28.4740
7.545822 77.269 28.4666
7.600502 77.290 28.4590
7.655579 77.310 28.4510
7.711054 77.331 28.4430
7.766932 77.351 28.4355
7.823214 77.372 28.4280
7.879904 77.392 28.4201
7.937005 77.413 28.4120
7.994520 77.434 28.4040
8.052452 77.455 28.3960
8.110803 77.476 28.3881
8.169578 77.496 28.3800
8.228777 77.516 28.3715
8.288406 77.537 28.3630
8.348468 77.557 28.3550
8.408964 77.578 28.3470
8.469899 77.598 28.3386
8.531276 77.619 28.3300
8.593097 77.639 28.3216
8.655366 77.660 28.3130
8.718086 77.681 28.3040
8.781260 77.702 28.2950
8.844893 77.723 28.2865
8.908987 77.743 28.2780
8.973545 77.763 28.2691
9.038571 77.784 28.2600
9.104069 77.804 28.2510
9.170040 77.825 28.2420
9.236490 77.845 28.2331
9.303422 77.866 28.2240
9.370838 77.886 28.2146
9.438744 77.907 28.2050
9.507140 77.927 28.1955
9.576033 77.948 28.1860
9.645425 77.969 28.1765
9.715320 77.990 28.1670
9.785721 78.011 28.1576
9.856632 78.031 28.1480
9.928058 78.051 28.1380
10.000000 78.072 28.1280
10.072464 78.092 28.1185
10.145453 78.113 28.1090
10.218971 78.133 28.0991
10.293022 78.154 28.0890
10.367610 78.174 28.0785
10.442738 78.195 28.0680
10.518411 78.215 28.0580
10.594631 78.236 28.0480
10.671404 78.257 28.0376
10.748734 78.278 28.0270
10.826623 78.299 28.0160
10.905077 78.319 28.0050
10.984100 78.339 27.9945
11.063695 78.360 27.9840
11.143867 78.380 27.9731
11.224621 78.401 27.9620
11.305959 78.421 27.9510
11.387886 78.442 27.9400
11.470407 78.462 27.9291
11.553527 78.483 27.9180
11.637249 78.503 27.9066
11.721577 78.524 27.8950
11.806517 78.545 27.8835
11.892071 78.566 27.8720
11.978246 78.587 27.8605
12.065045 78.607 27.8490
12.152473 78.628 27.8376
12.240536 78.648 27.8260
12.329235 78.668 27.8141
12.418578 78.689 27.8020
12.508568 78.709 27.7901
12.599211 78.730 27.7780
12.690510 78.750 27.7656
12.782471 78.771 27.7530
12.875097 78.791 27.7405
12.968395 78.812 27.7280
13.062370 78.833 27.7155
13.157025 78.854 27.7030
13.252366 78.875 27.6906
13.348398 78.895 27.6780
13.445127 78.915 27.6651
13.542556 78.936 27.6520
13.640691 78.956 27.6390
13.739536 78.977 27.6260
13.839099 78.997 27.6131
13.939383 79.018 27.6000
14.040393 79.038 27.5866
14.142136 79.059 27.5730
14.244616 79.080 27.5595
14.347837 79.101 27.5460
14.451808 79.122 27.5326
14.556532 79.142 27.5190
14.662014 79.162 27.5051
14.768262 79.183 27.4910
14.875278 79.203 27.4770
14.983070 79.224 27.4630
15.091644 79.244 27.4491
15.201005 79.265 27.4350
15.311157 79.285 27.4206
15.422109 79.306 27.4060
15.533863 79.326 27.3916
15.646428 79.347 27.3770
15.759809 79.368 27.3620
15.874010 79.389 27.3470
15.989040 79.410 27.3325
16.104904 79.430 27.3180
16.221605 79.450 27.3031
16.339155 79.471 27.2880
16.457554 79.491 27.2725
16.576813 79.512 27.2570
16.696936 79.532 27.2420
16.817928 79.553 27.2270
16.939798 79.573 27.2116
17.062551 79.594 27.1960
17.186193 79.614 27.1800
17.310732 79.635 27.1640
17.436172 79.656 27.1485
17.562521 79.677 27.1330
17.689787 79.698 27.1171
17.817974 79.718 27.1010
17.947090 79.738 27.0850
18.077143 79.759 27.0690
18.208138 79.779 27.0531
18.340080 79.800 27.0370
18.472980 79.820 27.0206
18.606844 79.841 27.0040
18.741676 79.861 26.9876
18.877487 79.882 26.9710
19.014280 79.902 26.9543
19.152065 79.923 26.9370
19.290850 79.944 26.9188
19.430639 79.965 26.9000
19.571442 79.985 26.8805
19.713264 80.005 26.8610
19.856115 80.024 26.8415
20.000000 80.043 26.8240
20.144928 80.061 26.8102
20.290907 80.079 26.8020
20.437943 80.096 26.8026
20.586044 80.114 26.8100
20.735220 80.134 26.8251
20.885475 80.155 26.8430
21.036821 80.179 26.8599
21.189262 80.204 26.8730
21.342808 80.230 26.8784
21.497467 80.258 26.8760
21.653246 80.286 26.8651
21.810154 80.315 26.8430
21.968201 80.344 26.8065
22.127390 80.373 26.7571
22.287735 80.399 26.6922
22.449242 80.423 26.6211
22.611917 80.442 26.5511
22.775772 80.459 26.4851
22.940815 80.475 26.4277
23.107054 80.490 26.3801
23.274498 80.502 26.3440
23.443153 80.514 26.3220
23.613033 80.525 26.3182
23.784142 80.537 26.3300
23.956491 80.551 26.3574
24.130091 80.568 26.3960
24.304947 80.587 26.4423
24.481071 80.608 26.4929
24.658470 80.632 26.5458
24.837156 80.660 26.5939
25.017136 80.692 26.6294
25.198421 80.725 26.6530
25.381020 80.758 26.6626
25.564941 80.792 26.6590
25.750195 80.827 26.6429
25.936790 80.862 26.6130
26.124741 80.897 26.5671
26.314051 80.930 26.5091
26.504732 80.961 26.4412
26.696796 80.991 26.3661
26.890253 81.020 26.2867
27.085112 81.047 26.2041
27.281382 81.072 26.1189
27.479073 81.095 26.0361
27.678198 81.116 25.9623
27.878765 81.136 25.8941
28.080786 81.158 25.8306
28.284271 81.181 25.7711
28.489231 81.201 25.7143
28.695675 81.222 25.6611
28.903616 81.244 25.6134
29.113064 81.267 25.5661
29.324028 81.292 25.5143
29.536524 81.318 25.4591
29.750557 81.341 25.3992
29.966141 81.364 25.3371
30.183289 81.388 25.2759
30.402010 81.412 25.2121
30.622314 81.436 25.1411
30.844217 81.460 25.0691
31.067726 81.480 25.0013
31.292856 81.501 24.9361
31.519617 81.525 24.8753
31.748020 81.549 24.8131
31.978081 81.573 24.7427
32.209808 81.597 24.6681
32.443211 81.620 24.5921
32.678310 81.644 24.5111
32.915108 81.670 24.4223
33.153625 81.695 24.3261
33.393871 81.717 24.2200
33.635857 81.738 24.1102
33.879597 81.756 24.0020
34.125103 81.773 23.8961
34.372387 81.789 23.7951
34.621464 81.805 23.6991
34.872345 81.819 23.6093
35.125042 81.833 23.5251
35.379574 81.847 23.4465
35.635948 81.862 23.3731
35.894180 81.876 23.3048
36.154285 81.890 23.2411
36.416275 81.905 23.1819
36.680161 81.920 23.1261
36.945961 81.936 23.0730
37.213688 81.953 23.0211
37.483353 81.970 22.9684
37.754974 81.988 22.9161
38.028561 82.006 22.8663
38.304131 82.025 22.8141
38.581699 82.047 22.7558
38.861279 82.070 22.6901
39.142883 82.092 22.6122
39.426529 82.112 22.5281
39.712231 82.130 22.4412
40.000000 82.146 22.3541
40.289856 82.163 22.2714
40.581814 82.179 22.1911
40.875885 82.195 22.1130
41.172089 82.211 22.0371
41.470440 82.227 21.9633
41.770950 82.242 21.8921
42.073643 82.257 21.8245
42.378525 82.272 21.7591
42.685616 82.289 21.6958
42.994934 82.306 21.6321
43.306492 82.324 21.5652
43.620308 82.343 21.4961
43.936401 82.360 21.4237
44.254780 82.377 21.3511
44.575470 82.394 21.2824
44.898483 82.412 21.2131
45.223835 82.432 21.1409
45.551544 82.453 21.0631
45.881630 82.473 20.9749
46.214108 82.493 20.8811
46.548996 82.511 20.7853
46.886307 82.528 20.6872
47.226067 82.546 20.5892
47.568283 82.565 20.4872
47.912983 82.584 20.3766
48.260181 82.602 20.2602
48.609894 82.619 20.1387
48.962143 82.634 20.0132
49.316940 82.648 19.8849
49.674313 82.661 19.7542
50.034271 82.673 19.6213
50.396843 82.684 19.4882
50.762039 82.692 19.3555
51.129883 82.698 19.2282
51.500389 82.702 19.1115
51.873581 82.704 19.0062
52.249481 82.706 18.9151
52.628101 82.709 18.8371
53.009464 82.712 18.7735
53.393593 82.716 18.7191
53.780506 82.724 18.6713
54.170223 82.734 18.6241
54.562763 82.746 18.5698
54.958145 82.758 18.5101
55.356396 82.770 18.4438
55.757530 82.783 18.3711
56.161572 82.796 18.2914
56.568542 82.809 18.2061
56.978462 82.821 18.1148
57.391350 82.831 18.0222
57.807232 82.839 17.9328
58.226128 82.847 17.8461
58.648056 82.856 17.7641
59.073048 82.865 17.6831
59.501114 82.875 17.6009
59.932281 82.886 17.5152
60.366577 82.897 17.4232
60.804020 82.909 17.3242
61.244629 82.920 17.2160
61.688435 82.930 17.1002
62.135452 82.939 16.9771
62.585712 82.947 16.8482
63.039234 82.953 16.7147
63.496040 82.957 16.5782
63.956161 82.959 16.4402
64.419617 82.959 16.3022
64.886421 82.958 16.1652
65.356621 82.954 16.0322
65.830215 82.947 15.9049
66.307251 82.937 15.7882
66.787743 82.925 15.6884
67.271713 82.912 15.6031
67.759193 82.900 15.5324
68.250206 82.887 15.4751
68.744774 82.874 15.4308
69.242928 82.862 15.3971
69.744690 82.851 15.3736
70.250084 82.842 15.3540
70.759148 82.835 15.3312
71.271896 82.827 15.3070
71.788361 82.816 15.2796
72.308571 82.804 15.2540
72.832550 82.790 15.2332
73.360321 82.774 15.2220
73.891922 82.754 15.2242
74.427376 82.732 15.2469
74.966705 82.707 15.2991
75.509949 82.681 15.3798
76.057121 82.657 15.4908
76.608261 82.634 15.6327
77.163399 82.610 15.8067
77.722557 82.589 16.0135
78.285767 82.571 16.2577
78.853058 82.559 16.5294
79.424461 82.554 16.8224
80.000000 82.556 17.1304
80.579712 82.564 17.4466
81.163628 82.578 17.7664
81.751770 82.599 18.0863
82.344177 82.627 18.3964
82.940880 82.664 18.6877
83.541901 82.707 18.9535
84.147285 82.754 19.1823
84.757050 82.804 19.3787
85.371231 82.855 19.5426
85.989868 82.907 19.6768
86.612984 82.960 19.7841
87.240616 83.013 19.8629
87.872803 83.067 19.9107
88.509560 83.120 19.9330
89.150940 83.170 19.9331
89.796967 83.218 19.9151
90.447670 83.265 19.8855
91.103088 83.312 19.8401
91.763260 83.359 19.7762
92.428215 83.404 19.6962
93.097992 83.446 19.6000
93.772614 83.486 19.4922
94.452133 83.524 19.3784
95.136566 83.560 19.2563
95.825966 83.596 19.1235
96.520363 83.629 18.9853
97.219788 83.658 18.8450
97.924286 83.684 18.7053
98.633881 83.710 18.5717
99.348625 83.735 18.4393
100.068542 83.760 18.3032
100.793686 83.784 18.1683
101.524078 83.804 18.0393
102.259766 83.824 17.9123
103.000778 83.847 17.7867
103.747162 83.870 17.6573
104.498962 83.892 17.5162
105.256203 83.912 17.3713
106.018929 83.929 17.2274
106.787186 83.944 17.0853
107.561012 83.959 16.9471
108.340446 83.973 16.8132
109.125526 83.985 16.6846
109.916290 83.996 16.5622
110.712791 84.008 16.4493
111.515060 84.020 16.3402
112.323143 84.033 16.2304
113.137085 84.047 16.1202
113.956924 84.060 16.0086
114.782700 84.072 15.8953
115.614464 84.084 15.7791
116.452255 84.096 15.6612
117.296112 84.106 15.5402
118.146095 84.114 15.4232
119.002228 84.119 15.3166
119.864563 84.122 15.2222
120.733154 84.126 15.1454
121.608040 84.130 15.0831
122.489258 84.136 15.0362
123.376869 84.145 14.9981
124.270905 84.157 14.9652
125.171425 84.173 14.9301
126.078468 84.192 14.8850
126.992081 84.214 14.8271
127.912323 84.237 14.7516
128.839233 84.260 14.6572
129.772842 84.284 14.5396
130.713242 84.306 14.4033
131.660431 84.325 14.2490
132.614502 84.342 14.0835
133.575485 84.355 13.9122
134.543427 84.365 13.7393
135.518387 84.372 13.5700
136.500412 84.377 13.4063
137.489548 84.379 13.2524
138.485855 84.380 13.1074
139.489380 84.381 12.9721
140.500168 84.381 12.8453
141.518295 84.381 12.7260
142.543793 84.381 12.6133
143.576721 84.381 12.5063
144.617142 84.381 12.4042
145.665100 84.381 12.3063
146.720642 84.381 12.2123
147.783844 84.381 12.1216
148.854752 84.381 12.0342
149.933411 84.381 11.9497
151.019897 84.381 11.8682
152.114243 84.381 11.7898
153.216522 84.381 11.7142
154.326797 84.381 11.6410
155.445114 84.381 11.5702
156.571533 84.381 11.5015
157.706116 84.381 11.4352
158.848923 84.381 11.3714
160.000000 84.381 11.3101
161.159424 84.381 11.2514
162.327255 84.381 11.1951
163.503540 84.381 11.1413
164.688354 84.381 11.0901
165.881760 84.381 11.0416
167.083801 84.381 10.9961
168.294571 84.381 10.9535
169.514099 84.381 10.9151
170.742462 84.381 10.8824
171.979736 84.381 10.8551
173.225967 84.382 10.8334
174.481232 84.384 10.8170
175.745605 84.387 10.8068
177.019119 84.391 10.7990
178.301880 84.398 10.7923
179.593933 84.408 10.7810
180.895340 84.419 10.7588
182.206177 84.431 10.7261
183.526520 84.443 10.6814
184.856430 84.456 10.6251
186.195984 84.469 10.5567
187.545227 84.481 10.4772
188.904266 84.491 10.3857
190.273132 84.499 10.2882
191.651932 84.504 10.1901
193.040726 84.507 10.0933
194.439575 84.509 10.0014
195.848572 84.510 9.9142
197.267761 84.510 9.8327
198.697250 84.510 9.7562
200.137085 84.510 9.6847
201.587372 84.510 9.6172
203.048157 84.510 9.5523
204.519531 84.510 9.4902
206.001556 84.510 9.4307
207.494324 84.510 9.3731
208.997925 84.510 9.3169
210.512405 84.510 9.2621
212.037857 84.510 9.2089
213.574371 84.510 9.1571
215.122025 84.510 9.1070
216.680893 84.510 9.0581
218.251053 84.510 9.0101
219.832581 84.510 8.9631
221.425583 84.510 8.9171
223.030121 84.510 8.8721
224.646286 84.510 8.8282
226.274170 84.510 8.7851
227.913849 84.510 8.7427
229.565399 84.510 8.7011
231.228928 84.510 8.6607
232.904510 84.510 8.6211
234.592224 84.510 8.5823
236.292191 84.510 8.5441
238.004456 84.510 8.5063
239.729126 84.510 8.4691
241.466309 84.510 8.4327
243.216080 84.510 8.3971
244.978516 84.510 8.3623
246.753738 84.510 8.3281
248.541809 84.510 8.2943
250.342850 84.510 8.2611
252.156937 84.510 8.2283
253.984161 84.510 8.1961
255.824646 84.510 8.1648
257.678467 84.510 8.1341
259.545685 84.510 8.1033
261.426483 84.510 8.0731
263.320862 84.510 8.0438
265.229004 84.510 8.0151
267.150970 84.510 7.9865
269.086853 84.510 7.9581
271.036774 84.510 7.9298
273.000824 84.510 7.9021
274.979095 84.510 7.8754
276.971710 84.510 7.8491
278.978760 84.510 7.8225
281.000336 84.510 7.7961
283.036591 84.510 7.7704
285.087585 84.510 7.7451
287.153442 84.510 7.7199
289.234283 84.510 7.6951
291.330200 84.510 7.6704
293.441284 84.510 7.6461
295.567688 84.510 7.6219
297.709503 84.510 7.5981
299.866821 84.510 7.5746
302.039795 84.510 7.5511
304.228485 84.510 7.5270
306.433044 84.510 7.5031
308.653595 84.510 7.4801
310.890228 84.510 7.4571
313.143066 84.510 7.4331
315.412231 84.510 7.4091
317.697845 84.510 7.3856
320.000000 84.510 7.3621
322.318848 84.510 7.3377
324.654510 84.510 7.3131
327.007080 84.510 7.2888
329.376709 84.510 7.2641
331.763519 84.510 7.2385
334.167603 84.510 7.2121
336.589142 84.510 7.1850
339.028198 84.510 7.1571
341.484924 84.510 7.1286
343.959473 84.510 7.0991
346.451935 84.510 7.0680
348.962463 84.510 7.0351
351.491211 84.510 7.0003
354.038239 84.510 6.9631
356.603760 84.510 6.9235
359.187866 84.510 6.8801
361.790680 84.510 6.8318
364.412354 84.510 6.7782
367.053040 84.509 6.7180
369.712860 84.507 6.6522
372.391968 84.504 6.5803
375.090454 84.499 6.5052
377.808533 84.492 6.4284
380.546265 84.482 6.3542
383.303864 84.470 6.2880
386.081451 84.457 6.2282
388.879150 84.444 6.1750
391.697144 84.430 6.1281
394.535522 84.414 6.0868
397.394501 84.398 6.0521
400.274170 84.381 6.0253
403.174744 84.364 6.0051
406.096313 84.347 5.9915
409.039062 84.329 5.9820
412.003113 84.311 5.9724
414.988647 84.291 5.9680
417.995850 84.268 5.9706
421.024811 84.243 5.9869
424.075714 84.216 6.0245
427.148743 84.188 6.0828
430.244049 84.161 6.1638
433.361786 84.134 6.2666
436.502106 84.108 6.3912
439.665161 84.083 6.5375
442.851166 84.061 6.7078
446.060242 84.042 6.8954
449.292572 84.027 7.0962
452.548340 84.017 7.3053
455.827698 84.011 7.5182
459.130798 84.009 7.7293
462.457855 84.012 7.9332
465.809021 84.019 8.1254
469.184448 84.029 8.2994
472.584381 84.041 8.4565
476.008911 84.053 8.5952
479.458252 84.065 8.7176
482.932617 84.077 8.8245
486.432159 84.089 8.9187
489.957031 84.100 9.0020
493.507477 84.109 9.0788
497.083618 84.116 9.1533
500.685699 84.123 9.2278
504.313873 84.130 9.3067
507.968323 84.137 9.3867
511.649292 84.145 9.4672
515.356934 84.155 9.5438
519.091370 84.166 9.6121
522.852966 84.178 9.6708
526.641724 84.191 9.7174
530.458008 84.203 9.7509
534.301941 84.215 9.7684
538.173706 84.225 9.7730
542.073547 84.233 9.7655
546.001648 84.238 9.7501
549.958191 84.240 9.7288
553.943420 84.239 9.7081
557.957520 84.233 9.6935
562.000671 84.224 9.6900
566.073181 84.213 9.7049
570.175171 84.201 9.7369
574.306885 84.189 9.7872
578.468567 84.176 9.8547
582.660400 84.163 9.9395
586.882568 84.151 10.0396
591.135376 84.141 10.1554
595.419006 84.134 10.2806
599.733643 84.130 10.4097
604.079590 84.127 10.5405
608.456970 84.125 10.6683
612.866089 84.124 10.7946
617.307190 84.124 10.9196
621.780457 84.124 11.0436
626.286133 84.124 11.1660
630.824463 84.124 11.2886
635.395691 84.124 11.4127
640.000000 84.124 11.5386
644.637695 84.124 11.6666
649.309021 84.124 11.7975
654.014160 84.124 11.9318
658.753418 84.124 12.0705
663.527039 84.124 12.2144
668.335205 84.124 12.3645
673.178284 84.124 12.5216
678.056396 84.125 12.6864
682.969849 84.126 12.8600
687.918945 84.129 13.0414
692.903870 84.132 13.2308
697.924927 84.138 13.4253
702.982422 84.147 13.6230
708.076477 84.158 13.8213
713.207520 84.170 14.0165
718.375732 84.184 14.2103
723.581360 84.198 14.4034
728.824707 84.214 14.5953
734.106079 84.232 14.7865
739.425720 84.252 14.9743
744.783936 84.274 15.1568
750.180908 84.297 15.3324
755.617065 84.322 15.4993
761.092529 84.348 15.6564
766.607727 84.375 15.8022
772.162903 84.404 15.9365
777.758301 84.433 16.0593
783.394287 84.462 16.1696
789.071045 84.492 16.2653
794.789001 84.521 16.3507
800.548340 84.547 16.4283
806.349487 84.572 16.5017
812.192627 84.597 16.5775
818.078125 84.623 16.6497
824.006226 84.651 16.7153
829.977295 84.679 16.7728
835.991699 84.707 16.8197
842.049622 84.734 16.8559
848.151428 84.761 16.8799
854.297485 84.788 16.8930
860.488098 84.812 16.8939
866.723572 84.835 16.8880
873.004211 84.855 16.8794
879.330322 84.873 16.8700
885.702332 84.889 16.8626
892.120483 84.904 16.8590
898.585144 84.917 16.8624
905.096680 84.930 16.8710
911.655396 84.944 16.8853
918.261597 84.958 16.9019
924.915710 84.973 16.9191
931.618042 84.988 16.9330
938.368896 85.004 16.9396
945.168762 85.021 16.9380
952.017822 85.037 16.9258
958.916504 85.051 16.9031
965.865234 85.064 16.8680
972.864319 85.075 16.8252
979.914062 85.081 16.7767
987.014954 85.084 16.7292
994.167236 85.083 16.6898
1001.371399 85.079 16.6591
1008.627747 85.074 16.6395
1015.936646 85.066 16.6330
1023.298584 85.055 16.6414
1030.713867 85.042 16.6679
1038.182739 85.027 16.7165
1045.705933 85.012 16.7857
1053.283447 84.997 16.8756
1060.916016 84.983 16.9845
1068.603882 84.969 17.1107
1076.347412 84.955 17.2544
1084.147095 84.943 17.4152
1092.003296 84.931 17.5924
1099.916382 84.920 17.7862
1107.886841 84.911 17.9931
1115.915039 84.906 18.2102
1124.001343 84.902 18.4352
1132.146362 84.900 18.6641
1140.350342 84.898 18.8981
1148.613770 84.897 19.1358
1156.937134 84.897 19.3800
1165.320801 84.897 19.6326
1173.765137 84.897 19.8948
1182.270752 84.898 20.1682
1190.838013 84.900 20.4538
1199.467285 84.903 20.7541
1208.159180 84.907 21.0667
1216.913940 84.915 21.3914
1225.732178 84.925 21.7248
1234.614380 84.937 22.0623
1243.560913 84.951 22.4067
1252.572266 84.966 22.7596
1261.648926 84.983 23.1205
1270.791382 85.003 23.4905
1280.000000 85.026 23.8665
1289.275391 85.052 24.2451
1298.618042 85.081 24.6284
1308.028320 85.110 25.0180
1317.506836 85.143 25.4113
1327.054077 85.181 25.8087
1336.670410 85.224 26.2035
1346.356567 85.270 26.5893
1356.112793 85.320 26.9646
1365.939697 85.372 27.3257
1375.837891 85.427 27.6736
1385.807739 85.483 28.0075
1395.849854 85.541 28.3287
1405.964844 85.599 28.6374
1416.152954 85.657 28.9369
1426.415039 85.715 29.2294
1436.751465 85.774 29.5189
1447.162720 85.832 29.8099
1457.649414 85.892 30.1028
1468.212158 85.953 30.4005
1478.851440 86.017 30.6999
1489.567871 86.084 31.0005
1500.361816 86.155 31.2969
1511.234131 86.229 31.5848
1522.185059 86.308 31.8598
1533.215454 86.389 32.1154
1544.325806 86.473 32.3540
1555.516602 86.556 32.5755
1566.788574 86.640 32.7802
1578.142090 86.726 32.9681
1589.578003 86.814 33.1393
1601.096680 86.900 33.2919
1612.698975 86.987 33.4324
1624.385254 87.072 33.5669
1636.156250 87.157 33.6954
1648.012451 87.243 33.8215
1659.954590 87.331 33.9416
1671.983398 87.420 34.0539
1684.099243 87.512 34.1566
1696.302856 87.605 34.2481
1708.594971 87.701 34.3257
1720.976196 87.797 34.3860
1733.447144 87.894 34.4298
1746.008423 87.991 34.4574
1758.660645 88.090 34.4680
1771.404663 88.188 34.4606
1784.240967 88.286 34.4371
1797.170288 88.383 34.3976
1810.193359 88.479 34.3462
1823.310791 88.574 34.2864
1836.523193 88.668 34.2203
1849.831421 88.761 34.1513
1863.236084 88.855 34.0793
1876.737793 88.949 34.0082
1890.337524 89.046 33.9294
1904.035645 89.147 33.8359
1917.833008 89.250 33.7265
1931.730469 89.350 33.5954
1945.728638 89.450 33.4487
1959.828125 89.549 33.2922
1974.029907 89.650 33.1208
1988.334473 89.751 32.9289
2002.742798 89.852 32.7229
2017.255493 89.947 32.5044
2031.873291 90.040 32.2819
2046.597168 90.133 32.0670
2061.427734 90.228 31.8520
2076.365479 90.324 31.6339
2091.411865 90.423 31.4099
2106.566895 90.522 31.1762
2121.832031 90.623 30.9330
2137.207764 90.725 30.6819
2152.694824 90.829 30.4161
2168.294189 90.936 30.1303
2184.006592 91.045 29.8215
2199.832764 91.153 29.4832
2215.773682 91.262 29.1205
2231.830078 91.368 28.7371
2248.002686 91.474 28.3317
2264.292725 91.580 27.9047
2280.700684 91.687 27.4550
2297.227539 91.790 26.9795
2313.874268 91.892 26.4841
2330.641602 91.990 25.9737
2347.530273 92.086 25.4473
2364.541504 92.182 24.9038
2381.676025 92.276 24.3476
2398.934570 92.364 23.7827
2416.318359 92.450 23.2096
2433.827881 92.538 22.6310
2451.464355 92.625 22.0435
2469.228760 92.709 21.4422
2487.121826 92.791 20.8336
2505.144531 92.870 20.2243
2523.297852 92.949 19.6088
2541.582764 93.030 18.9838
2560.000000 93.112 18.3488
2578.550781 93.189 17.7015
2597.236084 93.266 17.0441
2616.056641 93.343 16.3805
2635.013672 93.421 15.7029
2654.108154 93.500 15.0038
2673.340820 93.578 14.2852
2692.713135 93.652 13.5468
2712.225586 93.725 12.7886
2731.879395 93.798 12.0115
2751.675781 93.869 11.2127
2771.615479 93.937 10.3868
2791.699707 94.001 9.5428
2811.929688 94.059 8.6882
2832.305908 94.114 7.8221
2852.830078 94.167 6.9462
2873.502930 94.218 6.0599
2894.325439 94.264 5.1612
2915.298828 94.306 4.2551
2936.424316 94.345 3.3474
2957.702881 94.381 2.4340
2979.135742 94.415 1.5120
3000.723633 94.446 0.5831
3022.468262 94.472 -0.3534
3044.370117 94.494 -1.2927
3066.430908 94.512 -2.2299
3088.651611 94.527 -3.1668
3111.033203 94.540 -4.1043
3133.577148 94.549 -5.0406
3156.284180 94.554 -5.9740
3179.156006 94.555 -6.9046
3202.193359 94.555 -7.8317
3225.397949 94.552 -8.7556
3248.770508 94.546 -9.6773
3272.312500 94.536 -10.5939
3296.024902 94.523 -11.5024
3319.909180 94.508 -12.4048
3343.966797 94.491 -13.3025
3368.198486 94.472 -14.1938
3392.605713 94.449 -15.0780
3417.189941 94.424 -15.9540
3441.952393 94.398 -16.8182
3466.894287 94.370 -17.6762
3492.016846 94.343 -18.5313
3517.321289 94.314 -19.3860
3542.809326 94.284 -20.2433
3568.481934 94.253 -21.1050
3594.340576 94.221 -21.9738
3620.386719 94.187 -22.8508
3646.621582 94.150 -23.7377
3673.046387 94.110 -24.6357
3699.662842 94.068 -25.5455
3726.472168 94.022 -26.4697
3753.475586 93.972 -27.4125
3780.675049 93.916 -28.3697
3808.071289 93.852 -29.3412
3835.666016 93.779 -30.3183
3863.460938 93.697 -31.2948
3891.457275 93.605 -32.2624
3919.656250 93.504 -33.2140
3948.059814 93.392 -34.1408
3976.668945 93.268 -35.0359
4005.485596 93.133 -35.8870
4034.510986 92.986 -36.6811
4063.746582 92.829 -37.4127
4093.194336 92.664 -38.0739
4122.855469 92.492 -38.6583
4152.730957 92.311 -39.1611
4182.823730 92.123 -39.5703
4213.133789 91.927 -39.8748
4243.664062 91.727 -40.0674
4274.415527 91.524 -40.1393
4305.389648 91.319 -40.0846
4336.588379 91.114 -39.8937
4368.013184 90.912 -39.5679
4399.665527 90.717 -39.1011
4431.547363 90.533 -38.5052
4463.660156 90.363 -37.7857
4496.005371 90.210 -36.9554
4528.585449 90.074 -36.0253
4561.401367 89.957 -35.0060
4594.455078 89.860 -33.9083
4627.748535 89.785 -32.7438
4661.283203 89.734 -31.5239
4695.060547 89.707 -30.2613
4729.083008 89.705 -28.9694
4763.352051 89.729 -27.6573
4797.869141 89.776 -26.3330
4832.636719 89.851 -25.0116
4867.655762 89.956 -23.7063
4902.928711 90.089 -22.4311
4938.457520 90.248 -21.1987
4974.243652 90.436 -20.0264
5010.289062 90.658 -18.9248
5046.595703 90.913 -17.9267
5083.165527 91.200 -17.0621
5120.000000 91.514 -16.3511
5157.101562 91.852 -15.8160
5194.472168 92.212 -15.4801
5232.113281 92.596 -15.3663
5270.027344 92.996 -15.4987
5308.216309 93.404 -15.9099
5346.681641 93.815 -16.5970
5385.426270 94.221 -17.5673
5424.451172 94.621 -18.8212
5463.758789 95.013 -20.3661
5503.351562 95.387 -22.1884
5543.230957 95.734 -24.2865
5583.399414 96.054 -26.6310
5623.859375 96.341 -29.1991
5664.611816 96.596 -31.9680
5705.660156 96.814 -34.9189
5747.005859 96.993 -38.0167
5788.650879 97.129 -41.2299
5830.597656 97.224 -44.5258
5872.848633 97.277 -47.8702
5915.405762 97.290 -51.2366
5958.271484 97.262 -54.5955
6001.447266 97.195 -57.9230
6044.936523 97.090 -61.1909
6088.740234 96.949 -64.3822
6132.861816 96.774 -67.4778
6177.303223 96.564 -70.4554
6222.066406 96.319 -73.2923
6267.154297 96.044 -75.9700
6312.568359 95.743 -78.4650
6358.312012 95.417 -80.7699
6404.386719 95.070 -82.8709
6450.795898 94.704 -84.7638
6497.541016 94.322 -86.4425
6544.625000 93.928 -87.8993
6592.049805 93.523 -89.1235
6639.818359 93.113 -90.1185
6687.933594 92.703 -90.8836
6736.396973 92.294 -91.4198
6785.211426 91.887 -91.7324
6834.379883 91.486 -91.8082
6883.904785 91.090 -91.6321
6933.788574 90.709 -91.2158
6984.033691 90.352 -90.5560
7034.642578 90.025 -89.6829
7085.618652 89.731 -88.6133
7136.963867 89.479 -87.3835
7188.681152 89.275 -86.0147
7240.773438 89.127 -84.5684
7293.243164 89.043 -83.0906
7346.092773 89.021 -81.6500
7399.325684 89.063 -80.3094
7452.944336 89.162 -79.1324
7506.951172 89.319 -78.1897
7561.350098 89.519 -77.5226
7616.142578 89.750 -77.1899
7671.332031 90.002 -77.2099
7726.921875 90.265 -77.6227
7782.914551 90.526 -78.4209
7839.312500 90.771 -79.6229
7896.119629 90.992 -81.1908
7953.337891 91.179 -83.1091
8010.971191 91.326 -85.3276
8069.021973 91.426 -87.8087
8127.493164 91.476 -90.4973
8186.388672 91.471 -93.3447
8245.710938 91.410 -96.2933
8305.461914 91.291 -99.2895
8365.647461 91.112 -102.2724
8426.267578 90.874 -105.1850
8487.328125 90.577 -107.9608
8548.831055 90.218 -110.5417
8610.779297 89.800 -112.8447
8673.176758 89.323 -114.7848
8736.026367 88.797 -116.3100
8799.331055 88.231 -117.3413
8863.094727 87.639 -117.8745
8927.320312 87.030 -117.8718
8992.010742 86.421 -117.3561
9057.170898 85.825 -116.3045
9122.802734 85.271 -114.8179
9188.910156 84.794 -112.9451
9255.497070 84.396 -110.8210
9322.566406 84.094 -108.5656
9390.121094 83.880 -106.2740
9458.166016 83.757 -104.0590
9526.704102 83.710 -101.9874
9595.738281 83.732 -100.1586
9665.273438 83.802 -98.5876
9735.311523 83.897 -97.3329
9805.857422 84.009 -96.3625
9876.915039 84.125 -95.6796
9948.487305 84.237 -95.2358
10020.578125 84.335 -94.9973
10093.191406 84.422 -94.9230
10166.331055 84.496 -94.9660
10240.000000 84.560 -95.1100
10314.203125 84.615 -95.3245
10388.944336 84.665 -95.6055
10464.226562 84.711 -95.9345
10540.054688 84.756 -96.3245
10616.432617 84.805 -96.7755
10693.363281 84.857 -97.3095
10770.852539 84.912 -97.9460
10848.902344 84.968 -98.6946
10927.517578 85.019 -99.5693
11006.703125 85.066 -100.5762
11086.461914 85.106 -101.7278
11166.798828 85.133 -103.0184
11247.718750 85.141 -104.4564
11329.223633 85.126 -106.0117
11411.320312 85.083 -107.6668
11494.011719 85.011 -109.3915
11577.301758 84.910 -111.1593
11661.195312 84.778 -112.9421
11745.697266 84.614 -114.7109
11830.811523 84.419 -116.4428
11916.542969 84.195 -118.1095
12002.894531 83.944 -119.6984
12089.873047 83.669 -121.1929
12177.480469 83.370 -122.5775
12265.723633 83.046 -123.8319
12354.606445 82.704 -124.9543
12444.132812 82.348 -125.9357
12534.308594 81.976 -126.7768
12625.136719 81.589 -127.4814
12716.624023 81.186 -128.0315
12808.773438 80.768 -128.4135
12901.591797 80.336 -128.6184
12995.082031 79.897 -128.6385
13089.250000 79.447 -128.4555
13184.099609 78.984 -128.0608
13279.636719 78.510 -127.4180
13375.867188 78.026 -126.4942
13472.793945 77.537 -125.2689
13570.422852 77.049 -123.7135
13668.759766 76.570 -121.8193
13767.809570 76.101 -119.5632
13867.577148 75.658 -116.9591
13968.067383 75.254 -113.9948
14069.285156 74.904 -110.7264
14171.237305 74.623 -107.1820
14273.927734 74.420 -103.4352
14377.362305 74.306 -99.5376
14481.546875 74.289 -95.5834
14586.486328 74.385 -91.6554
14692.185547 74.583 -87.8407
14798.651367 74.874 -84.2262
14905.888672 75.256 -80.8983
15013.902344 75.729 -77.9474
15122.700195 76.268 -75.4487
15232.285156 76.853 -73.5073
15342.664062 77.463 -72.1246
15453.843750 78.071 -71.3406
15565.829102 78.672 -71.1455
15678.625000 79.258 -71.5537
15792.239258 79.811 -72.5292
15906.675781 80.312 -74.0748
16021.942383 80.755 -76.0880
16138.043945 81.128 -78.4926
16254.986328 81.436 -81.2104
16372.777344 81.682 -84.1599
16491.421875 81.862 -87.2754
16610.923828 81.972 -90.4863
16731.294922 82.018 -93.7262
16852.535156 82.002 -96.9155
16974.656250 81.930 -100.0225
17097.662109 81.807 -102.9965
17221.558594 81.638 -105.8154
17346.353516 81.426 -108.4456
17472.052734 81.176 -110.8709
17598.662109 80.893 -113.0667
17726.189453 80.582 -115.0253
17854.640625 80.247 -116.7310
17984.021484 79.894 -118.1846
18114.341797 79.528 -119.3807
18245.605469 79.154 -120.3234
18377.820312 78.774 -121.0101
18510.994141 78.396 -121.4551
18645.132812 78.027 -121.6628
18780.242188 77.671 -121.6596
18916.332031 77.333 -121.4621
19053.408203 77.017 -121.1044
19191.476562 76.729 -120.6140
19330.546875 76.468 -120.0274
19470.623047 76.238 -119.3817
19611.714844 76.035 -118.7039
19753.830078 75.860 -118.0272
19896.974609 75.710 -117.3699
