* Measurement data measured by REW V5.20.13
* Source: C:\Users\kurin\Desktop\Targets and Curves\Resolve\Img\Files\Sennheiser_HD_600_5128_SPL.txt
* Format: Comma/Tab/Space delimited data
* Dated: Aug 15, 2023 12:33:37 AM
* REW Settings:
*  C-weighting compensation: Off
*  Target level: 75.0 dB
* Note: ; Measurement imported from C:\Users\kurin\Desktop\Targets and Curves\Resolve\Img\Files\Sennheiser_HD_600_5128_SPL.txt Format: Comma/Tab/Space delimited data 623 values loaded, 5 Hz to 39,792 Hz log spaced 
* Measurement: Sennheiser_HD_600_5128_SP
* Smoothing: 1/48 octave
* Frequency Step: 1/96 octave
* Start Frequency: 5.000 Hz
*
* Freq(Hz) SPL(dB) Phase(degrees)
5.000000 68.482 79.5860
5.036232 68.508 79.5720
5.072727 68.536 79.5570
5.109486 68.569 79.5396
5.146511 68.606 79.5200
5.183805 68.651 79.4971
5.221369 68.700 79.4730
5.259205 68.751 79.4497
5.297316 68.804 79.4260
5.335702 68.861 79.4011
5.374367 68.919 79.3760
5.413311 68.976 79.3514
5.452538 69.034 79.3270
5.492050 69.091 79.3025
5.531847 69.149 79.2780
5.571934 69.206 79.2536
5.612310 69.264 79.2290
5.652979 69.321 79.2041
5.693943 69.379 79.1790
5.735204 69.437 79.1536
5.776763 69.494 79.1280
5.818624 69.551 79.1026
5.860788 69.609 79.0770
5.903258 69.666 79.0511
5.946035 69.724 79.0250
5.989123 69.781 78.9991
6.032523 69.839 78.9730
6.076237 69.897 78.9466
6.120268 69.955 78.9200
6.164618 70.013 78.8931
6.209289 70.070 78.8660
6.254284 70.127 78.8386
6.299605 70.185 78.8110
6.345255 70.242 78.7836
6.391235 70.300 78.7560
6.437549 70.357 78.7281
6.484198 70.415 78.7000
6.531185 70.472 78.6716
6.578513 70.530 78.6430
6.626183 70.587 78.6146
6.674199 70.645 78.5860
6.722563 70.702 78.5571
6.771278 70.760 78.5280
6.820345 70.817 78.4986
6.869768 70.875 78.4690
6.919549 70.932 78.4391
6.969691 70.990 78.4090
7.020196 71.047 78.3786
7.071068 71.105 78.3480
7.122308 71.162 78.3176
7.173919 71.220 78.2870
7.225904 71.277 78.2562
7.278266 71.335 78.2250
7.331007 71.392 78.1931
7.384131 71.450 78.1610
7.437639 71.507 78.1291
7.491535 71.565 78.0970
7.545822 71.622 78.0646
7.600502 71.680 78.0320
7.655579 71.737 77.9996
7.711054 71.795 77.9670
7.766932 71.852 77.9337
7.823214 71.910 77.9000
7.879904 71.967 77.8661
7.937005 72.025 77.8320
7.994520 72.082 77.7976
8.052452 72.140 77.7630
8.110803 72.197 77.7286
8.169578 72.255 77.6940
8.228777 72.312 77.6587
8.288406 72.370 77.6230
8.348468 72.427 77.5871
8.408964 72.485 77.5510
8.469899 72.542 77.5151
8.531276 72.600 77.4790
8.593097 72.657 77.4422
8.655366 72.715 77.4050
8.718086 72.772 77.3676
8.781260 72.830 77.3300
8.844893 72.887 77.2921
8.908987 72.945 77.2540
8.973545 73.002 77.2156
9.038571 73.060 77.1770
9.104069 73.117 77.1382
9.170040 73.175 77.0990
9.236490 73.232 77.0591
9.303422 73.290 77.0190
9.370838 73.347 76.9791
9.438744 73.405 76.9390
9.507140 73.462 76.8981
9.576033 73.520 76.8570
9.645425 73.577 76.8161
9.715320 73.635 76.7750
9.785721 73.692 76.7333
9.856632 73.750 76.6910
9.928058 73.807 76.6481
10.000000 73.865 76.6050
10.072464 73.922 76.5622
10.145453 73.980 76.5190
10.218971 74.038 76.4752
10.293022 74.096 76.4310
10.367610 74.154 76.3866
10.442738 74.211 76.3420
10.518411 74.268 76.2972
10.594631 74.326 76.2520
10.671404 74.383 76.2062
10.748734 74.441 76.1600
10.826623 74.498 76.1137
10.905077 74.556 76.0670
10.984100 74.613 76.0197
11.063695 74.671 75.9720
11.143867 74.728 75.9241
11.224621 74.786 75.8760
11.305959 74.843 75.8277
11.387886 74.901 75.7790
11.470407 74.958 75.7297
11.553527 75.016 75.6800
11.637249 75.073 75.6302
11.721577 75.131 75.5800
11.806517 75.188 75.5292
11.892071 75.246 75.4780
11.978246 75.303 75.4267
12.065045 75.361 75.3750
12.152473 75.418 75.3227
12.240536 75.476 75.2700
12.329235 75.533 75.2172
12.418578 75.591 75.1640
12.508568 75.648 75.1103
12.599211 75.706 75.0560
12.690510 75.763 75.0012
12.782471 75.821 74.9461
12.875097 75.878 74.8908
12.968395 75.936 74.8350
13.062370 75.993 74.7782
13.157025 76.051 74.7210
13.252366 76.108 74.6642
13.348398 76.166 74.6070
13.445127 76.223 74.5488
13.542556 76.281 74.4901
13.640691 76.338 74.4312
13.739536 76.396 74.3720
13.839099 76.453 74.3123
13.939383 76.511 74.2521
14.040393 76.568 74.1913
14.142136 76.626 74.1300
14.244616 76.683 74.0683
14.347837 76.741 74.0060
14.451808 76.798 73.9433
14.556532 76.856 73.8800
14.662014 76.913 73.8163
14.768262 76.971 73.7521
14.875278 77.028 73.6873
14.983070 77.086 73.6221
15.091644 77.143 73.5563
15.201005 77.201 73.4900
15.311157 77.258 73.4233
15.422109 77.316 73.3560
15.533863 77.373 73.2884
15.646428 77.431 73.2200
15.759809 77.488 73.1508
15.874010 77.546 73.0811
15.989040 77.603 73.0113
16.104904 77.661 72.9411
16.221605 77.718 72.8699
16.339155 77.776 72.7981
16.457554 77.833 72.7258
16.576813 77.891 72.6531
16.696936 77.948 72.5799
16.817928 78.006 72.5060
16.939798 78.063 72.4314
17.062551 78.121 72.3561
17.186193 78.179 72.2803
17.310732 78.237 72.2040
17.436172 78.295 72.1274
17.562521 78.352 72.0501
17.689787 78.409 71.9719
17.817974 78.467 71.8931
17.947090 78.524 71.8139
18.077143 78.582 71.7340
18.208138 78.639 71.6534
18.340080 78.697 71.5721
18.472980 78.754 71.4903
18.606844 78.812 71.4080
18.741676 78.869 71.3254
18.877487 78.927 71.2421
19.014280 78.984 71.1578
19.152065 79.042 71.0731
19.290850 79.099 70.9884
19.430639 79.157 70.9031
19.571442 79.215 70.8163
19.713264 79.272 70.7291
19.856115 79.329 70.6421
20.000000 79.386 70.5551
20.144928 79.443 70.4678
20.290907 79.501 70.3811
20.437943 79.558 70.2960
20.586044 79.616 70.2121
20.735220 79.674 70.1294
20.885475 79.732 70.0471
21.036821 79.791 69.9645
21.189262 79.851 69.8801
21.342808 79.912 69.7927
21.497467 79.974 69.7011
21.653246 80.036 69.6041
21.810154 80.098 69.5011
21.968201 80.160 69.3906
22.127390 80.222 69.2741
22.287735 80.284 69.1525
22.449242 80.345 69.0261
22.611917 80.406 68.8959
22.775772 80.466 68.7612
22.940815 80.526 68.6205
23.107054 80.586 68.4762
23.274498 80.644 68.3301
23.443153 80.701 68.1822
23.613033 80.758 68.0328
23.784142 80.814 67.8821
23.956491 80.869 67.7297
24.130091 80.923 67.5782
24.304947 80.976 67.4307
24.481071 81.028 67.2862
24.658470 81.080 67.1446
24.837156 81.133 67.0052
25.017136 81.185 66.8668
25.198421 81.237 66.7301
25.381020 81.289 66.5959
25.564941 81.340 66.4631
25.750195 81.391 66.3303
25.936790 81.442 66.2002
26.124741 81.491 66.0744
26.314051 81.540 65.9552
26.504732 81.589 65.8461
26.696796 81.639 65.7441
26.890253 81.690 65.6473
27.085112 81.743 65.5551
27.281382 81.796 65.4678
27.479073 81.851 65.3811
27.678198 81.909 65.2920
27.878765 81.970 65.1971
28.080786 82.031 65.0927
28.284271 82.093 64.9772
28.489231 82.156 64.8475
28.695675 82.220 64.7052
28.903616 82.282 64.5498
29.113064 82.342 64.3842
29.324028 82.401 64.2104
29.536524 82.459 64.0312
29.750557 82.514 63.8487
29.966141 82.568 63.6672
30.183289 82.619 63.4911
30.402010 82.669 63.3222
30.622314 82.719 63.1650
30.844217 82.769 63.0162
31.067726 82.820 62.8746
31.292856 82.873 62.7382
31.519617 82.926 62.6060
31.748020 82.981 62.4742
31.978081 83.039 62.3405
32.209808 83.099 62.1992
32.443211 83.160 62.0433
32.678310 83.222 61.8742
32.915108 83.283 61.6901
33.153625 83.343 61.4932
33.393871 83.402 61.2845
33.635857 83.460 61.0663
33.879597 83.515 60.8392
34.125103 83.567 60.6093
34.372387 83.616 60.3817
34.621464 83.663 60.1603
34.872345 83.708 59.9515
35.125042 83.753 59.7532
35.379574 83.798 59.5665
35.635948 83.844 59.3892
35.894180 83.890 59.2212
36.154285 83.938 59.0582
36.416275 83.988 58.8972
36.680161 84.040 58.7353
36.945961 84.094 58.5693
37.213688 84.149 58.3963
37.483353 84.205 58.2122
37.754974 84.262 58.0163
38.028561 84.319 57.8061
38.304131 84.376 57.5833
38.581699 84.431 57.3480
38.861279 84.484 57.1034
39.142883 84.535 56.8522
39.426529 84.584 56.5964
39.712231 84.632 56.3378
40.000000 84.678 56.0794
40.289856 84.721 55.8232
40.581814 84.762 55.5734
40.875885 84.801 55.3351
41.172089 84.840 55.1063
41.470440 84.880 54.8875
41.770950 84.920 54.6763
42.073643 84.960 54.4714
42.378525 85.001 54.2713
42.685616 85.044 54.0758
42.994934 85.088 53.8803
43.306492 85.133 53.6800
43.620308 85.180 53.4743
43.936401 85.227 53.2613
44.254780 85.274 53.0404
44.575470 85.321 52.8096
44.898483 85.368 52.5704
45.223835 85.414 52.3227
45.551544 85.458 52.0694
45.881630 85.500 51.8127
46.214108 85.541 51.5544
46.548996 85.580 51.2961
46.886307 85.618 51.0404
47.226067 85.654 50.7905
47.568283 85.689 50.5464
47.912983 85.724 50.3099
48.260181 85.759 50.0794
48.609894 85.794 49.8548
48.962143 85.830 49.6333
49.316940 85.867 49.4123
49.674313 85.905 49.1914
50.034271 85.942 48.9692
50.396843 85.979 48.7463
50.762039 86.016 48.5230
51.129883 86.053 48.2994
51.500389 86.090 48.0749
51.873581 86.126 47.8514
52.249481 86.162 47.6307
52.628101 86.198 47.4124
53.009464 86.235 47.1974
53.393593 86.274 46.9824
53.780506 86.313 46.7652
54.170223 86.354 46.5434
54.562763 86.395 46.3138
54.958145 86.437 46.0754
55.356396 86.480 45.8261
55.757530 86.522 45.5664
56.161572 86.563 45.2955
56.568542 86.603 45.0155
56.978462 86.642 44.7274
57.391350 86.679 44.4335
57.807232 86.715 44.1365
58.226128 86.749 43.8365
58.648056 86.782 43.5345
59.073048 86.814 43.2305
59.501114 86.846 42.9253
59.932281 86.877 42.6176
60.366577 86.907 42.3061
60.804020 86.935 41.9915
61.244629 86.962 41.6747
61.688435 86.989 41.3546
62.135452 87.015 41.0301
62.585712 87.039 40.7016
63.039234 87.061 40.3675
63.496040 87.080 40.0316
63.956161 87.097 39.6973
64.419617 87.111 39.3646
64.886421 87.124 39.0340
65.356621 87.135 38.7076
65.830215 87.142 38.3868
66.307251 87.146 38.0746
66.787743 87.149 37.7743
67.271713 87.149 37.4865
67.759193 87.147 37.2123
68.250206 87.143 36.9535
68.744774 87.137 36.7122
69.242928 87.130 36.4884
69.744690 87.123 36.2816
70.250084 87.114 36.0943
70.759148 87.103 35.9279
71.271896 87.091 35.7862
71.788361 87.078 35.6736
72.308571 87.066 35.5901
72.832550 87.054 35.5373
73.360321 87.044 35.5160
73.891922 87.036 35.5296
74.427376 87.032 35.5729
74.966705 87.034 35.6440
75.509949 87.041 35.7358
76.057121 87.055 35.8437
76.608261 87.076 35.9588
77.163399 87.105 36.0740
77.722557 87.142 36.1788
78.285767 87.187 36.2619
78.853058 87.237 36.3189
79.424461 87.291 36.3424
80.000000 87.349 36.3311
80.579712 87.409 36.2803
81.163628 87.470 36.1922
81.751770 87.530 36.0654
82.344177 87.588 35.9064
82.940880 87.643 35.7194
83.541901 87.696 35.5094
84.147285 87.745 35.2812
84.757050 87.792 35.0395
85.371231 87.835 34.7896
85.989868 87.876 34.5345
86.612984 87.914 34.2789
87.240616 87.950 34.0225
87.872803 87.985 33.7671
88.509560 88.019 33.5115
89.150940 88.053 33.2560
89.796967 88.087 32.9985
90.447670 88.120 32.7372
91.103088 88.152 32.4716
91.763260 88.184 32.2001
92.428215 88.215 31.9236
93.097992 88.244 31.6413
93.772614 88.271 31.3556
94.452133 88.297 31.0683
95.136566 88.322 30.7796
95.825966 88.345 30.4898
96.520363 88.367 30.2006
97.219788 88.387 29.9134
97.924286 88.406 29.6296
98.633881 88.423 29.3520
99.348625 88.440 29.0786
100.068542 88.457 28.8082
100.793686 88.474 28.5407
101.524078 88.490 28.2750
102.259766 88.505 28.0116
103.000778 88.521 27.7511
103.747162 88.536 27.4915
104.498962 88.551 27.2310
105.256203 88.565 26.9705
106.018929 88.579 26.7103
106.787186 88.592 26.4505
107.561012 88.605 26.1921
108.340446 88.617 25.9334
109.125526 88.629 25.6722
109.916290 88.640 25.4115
110.712791 88.649 25.1534
111.515060 88.657 24.8985
112.323143 88.666 24.6488
113.137085 88.674 24.4025
113.956924 88.681 24.1586
114.782700 88.688 23.9176
115.614464 88.694 23.6800
116.452255 88.701 23.4445
117.296112 88.709 23.2103
118.146095 88.716 22.9765
119.002228 88.722 22.7414
119.864563 88.728 22.5056
120.733154 88.734 22.2694
121.608040 88.740 22.0325
122.489258 88.745 21.7939
123.376869 88.748 21.5566
124.270905 88.750 21.3234
125.171425 88.751 21.0944
126.078468 88.752 20.8711
126.992081 88.752 20.6525
127.912323 88.752 20.4384
128.839233 88.752 20.2284
129.772842 88.752 20.0223
130.713242 88.752 19.8194
131.660431 88.752 19.6193
132.614502 88.752 19.4216
133.575485 88.752 19.2256
134.543427 88.752 19.0314
135.518387 88.752 18.8389
136.500412 88.752 18.6474
137.489548 88.752 18.4564
138.485855 88.752 18.2655
139.489380 88.752 18.0738
140.500168 88.752 17.8814
141.518295 88.751 17.6880
142.543793 88.750 17.4935
143.576721 88.749 17.2972
144.617142 88.746 17.1014
145.665100 88.742 16.9080
146.720642 88.736 16.7185
147.783844 88.730 16.5357
148.854752 88.723 16.3585
149.933411 88.717 16.1869
151.019897 88.711 16.0204
152.114243 88.704 15.8588
153.216522 88.697 15.7014
154.326797 88.691 15.5481
155.445114 88.685 15.3973
156.571533 88.679 15.2470
157.706116 88.672 15.0993
158.848923 88.665 14.9560
160.000000 88.658 14.8163
161.159424 88.652 14.6802
162.327255 88.646 14.5473
163.503540 88.639 14.4175
164.688354 88.633 14.2903
165.881760 88.627 14.1664
167.083801 88.622 14.0423
168.294571 88.619 13.9146
169.514099 88.615 13.7843
170.742462 88.610 13.6503
171.979736 88.604 13.5154
173.225967 88.598 13.3821
174.481232 88.591 13.2503
175.745605 88.584 13.1203
177.019119 88.576 12.9933
178.301880 88.567 12.8701
179.593933 88.557 12.7523
180.895340 88.547 12.6430
182.206177 88.537 12.5392
183.526520 88.529 12.4393
184.856430 88.521 12.3422
186.195984 88.513 12.2466
187.545227 88.505 12.1522
188.904266 88.497 12.0583
190.273132 88.490 11.9652
191.651932 88.483 11.8730
193.040726 88.475 11.7822
194.439575 88.467 11.6941
195.848572 88.459 11.6072
197.267761 88.452 11.5208
198.697250 88.444 11.4352
200.137085 88.436 11.3502
201.587372 88.428 11.2672
203.048157 88.420 11.1876
204.519531 88.411 11.1112
206.001556 88.403 11.0388
207.494324 88.395 10.9682
208.997925 88.388 10.8975
210.512405 88.381 10.8272
212.037857 88.374 10.7575
213.574371 88.367 10.6872
215.122025 88.360 10.6151
216.680893 88.353 10.5412
218.251053 88.346 10.4643
219.832581 88.339 10.3862
221.425583 88.330 10.3077
223.030121 88.320 10.2302
224.646286 88.310 10.1545
226.274170 88.299 10.0832
227.913849 88.286 10.0191
229.565399 88.272 9.9621
231.228928 88.259 9.9139
232.904510 88.246 9.8721
234.592224 88.233 9.8347
236.292191 88.221 9.8031
238.004456 88.208 9.7789
239.729126 88.196 9.7590
241.466309 88.186 9.7407
243.216080 88.176 9.7250
244.978516 88.165 9.7111
246.753738 88.153 9.7020
248.541809 88.142 9.7017
250.342850 88.131 9.7070
252.156937 88.123 9.7165
253.984161 88.115 9.7290
255.824646 88.107 9.7425
257.678467 88.100 9.7570
259.545685 88.095 9.7725
261.426483 88.091 9.7860
263.320862 88.088 9.7940
265.229004 88.086 9.7970
267.150970 88.084 9.7931
269.086853 88.081 9.7850
271.036774 88.077 9.7741
273.000824 88.072 9.7630
274.979095 88.066 9.7548
276.971710 88.059 9.7500
278.978760 88.052 9.7506
281.000336 88.046 9.7560
283.036591 88.040 9.7668
285.087585 88.034 9.7819
287.153442 88.029 9.8016
289.234283 88.025 9.8229
291.330200 88.023 9.8438
293.441284 88.021 9.8620
295.567688 88.020 9.8744
297.709503 88.019 9.8820
299.866821 88.019 9.8843
302.039795 88.018 9.8820
304.228485 88.017 9.8748
306.433044 88.014 9.8650
308.653595 88.010 9.8537
310.890228 88.005 9.8440
313.143066 87.999 9.8401
315.412231 87.993 9.8410
317.697845 87.987 9.8476
320.000000 87.980 9.8590
322.318848 87.973 9.8745
324.654510 87.967 9.8939
327.007080 87.961 9.9178
329.376709 87.956 9.9429
331.763519 87.952 9.9659
334.167603 87.949 9.9879
336.589142 87.944 10.0078
339.028198 87.939 10.0289
341.484924 87.933 10.0542
343.959473 87.926 10.0839
346.451935 87.919 10.1192
348.962463 87.913 10.1599
351.491211 87.907 10.2061
354.038239 87.901 10.2578
356.603760 87.895 10.3162
359.187866 87.891 10.3778
361.790680 87.889 10.4401
364.412354 87.888 10.5018
367.053040 87.887 10.5608
369.712860 87.886 10.6178
372.391968 87.886 10.6728
375.090454 87.886 10.7258
377.808533 87.886 10.7770
380.546265 87.886 10.8269
383.303864 87.886 10.8761
386.081451 87.886 10.9249
388.879150 87.886 10.9734
391.697144 87.886 11.0219
394.535522 87.886 11.0709
397.394501 87.886 11.1199
400.274170 87.886 11.1683
403.174744 87.886 11.2168
406.096313 87.886 11.2662
409.039062 87.886 11.3158
412.003113 87.886 11.3653
414.988647 87.886 11.4148
417.995850 87.886 11.4645
421.024811 87.886 11.5138
424.075714 87.886 11.5622
427.148743 87.886 11.6098
430.244049 87.886 11.6566
433.361786 87.885 11.7029
436.502106 87.884 11.7481
439.665161 87.881 11.7949
442.851166 87.877 11.8443
446.060242 87.872 11.8998
449.292572 87.866 11.9654
452.548340 87.859 12.0408
455.827698 87.853 12.1271
459.130798 87.848 12.2237
462.457855 87.843 12.3310
465.809021 87.839 12.4466
469.184448 87.838 12.5706
472.584381 87.839 12.6966
476.008911 87.843 12.8184
479.458252 87.848 12.9356
482.932617 87.853 13.0453
486.432159 87.859 13.1487
489.957031 87.866 13.2455
493.507477 87.872 13.3367
497.083618 87.877 13.4220
500.685699 87.881 13.5057
504.313873 87.883 13.5917
507.968323 87.885 13.6817
511.649292 87.886 13.7787
515.356934 87.886 13.8826
519.091370 87.887 13.9942
522.852966 87.888 14.1136
526.641724 87.889 14.2417
530.458008 87.891 14.3765
534.301941 87.895 14.5171
538.173706 87.901 14.6615
542.073547 87.908 14.8071
546.001648 87.915 14.9545
549.958191 87.923 15.1042
553.943420 87.932 15.2545
557.957520 87.944 15.4048
562.000671 87.957 15.5525
566.073181 87.971 15.6942
570.175171 87.986 15.8316
574.306885 88.000 15.9651
578.468567 88.015 16.0956
582.660400 88.031 16.2244
586.882568 88.048 16.3506
591.135376 88.065 16.4736
595.419006 88.082 16.5926
599.733643 88.100 16.7062
604.079590 88.119 16.8156
608.456970 88.137 16.9211
612.866089 88.154 17.0237
617.307190 88.172 17.1251
621.780457 88.190 17.2237
626.286133 88.209 17.3179
630.824463 88.227 17.4087
635.395691 88.244 17.4959
640.000000 88.261 17.5817
644.637695 88.278 17.6677
649.309021 88.294 17.7557
654.014160 88.309 17.8481
658.753418 88.324 17.9447
663.527039 88.339 18.0463
668.335205 88.355 18.1516
673.178284 88.372 18.2591
678.056396 88.389 18.3696
682.969849 88.406 18.4839
687.918945 88.424 18.6016
692.903870 88.444 18.7239
697.924927 88.466 18.8466
702.982422 88.489 18.9659
708.076477 88.514 19.0816
713.207520 88.540 19.1922
718.375732 88.567 19.2976
723.581360 88.595 19.3985
728.824707 88.624 19.4917
734.106079 88.655 19.5747
739.425720 88.688 19.6468
744.783936 88.720 19.7062
750.180908 88.752 19.7529
755.617065 88.785 19.7862
761.092529 88.818 19.8060
766.607727 88.850 19.8113
772.162903 88.882 19.8031
777.758301 88.912 19.7818
783.394287 88.941 19.7471
789.071045 88.969 19.6989
794.789001 88.995 19.6362
800.548340 89.019 19.5582
806.349487 89.041 19.4654
812.192627 89.059 19.3556
818.078125 89.073 19.2355
824.006226 89.080 19.1075
829.977295 89.081 18.9814
835.991699 89.075 18.8643
842.049622 89.061 18.7673
848.151428 89.040 18.7004
854.297485 89.012 18.6750
860.488098 88.979 18.7042
866.723572 88.942 18.7926
873.004211 88.905 18.9506
879.330322 88.869 19.1731
885.702332 88.838 19.4631
892.120483 88.814 19.8067
898.585144 88.800 20.1961
905.096680 88.796 20.6164
911.655396 88.803 21.0541
918.261597 88.821 21.4964
924.915710 88.849 21.9288
931.618042 88.887 22.3425
938.368896 88.932 22.7245
945.168762 88.983 23.0728
952.017822 89.038 23.3799
958.916504 89.095 23.6500
965.865234 89.153 23.8833
972.864319 89.211 24.0843
979.914062 89.267 24.2560
987.014954 89.323 24.4035
994.167236 89.377 24.5311
1001.371399 89.429 24.6436
1008.627747 89.479 24.7465
1015.936646 89.527 24.8416
1023.298584 89.574 24.9324
1030.713867 89.620 25.0187
1038.182739 89.666 25.1005
1045.705933 89.712 25.1807
1053.283447 89.755 25.2623
1060.916016 89.798 25.3446
1068.603882 89.843 25.4284
1076.347412 89.889 25.5117
1084.147095 89.934 25.5923
1092.003296 89.979 25.6717
1099.916382 90.025 25.7513
1107.886841 90.073 25.8287
1115.915039 90.121 25.9022
1124.001343 90.171 25.9708
1132.146362 90.221 26.0333
1140.350342 90.271 26.0888
1148.613770 90.322 26.1360
1156.937134 90.374 26.1749
1165.320801 90.426 26.2044
1173.765137 90.477 26.2269
1182.270752 90.527 26.2438
1190.838013 90.576 26.2560
1199.467285 90.626 26.2643
1208.159180 90.675 26.2700
1216.913940 90.723 26.2733
1225.732178 90.770 26.2780
1234.614380 90.816 26.2879
1243.560913 90.862 26.3029
1252.572266 90.909 26.3255
1261.648926 90.958 26.3519
1270.791382 91.009 26.3798
1280.000000 91.062 26.4079
1289.275391 91.116 26.4349
1298.618042 91.172 26.4579
1308.028320 91.231 26.4748
1317.506836 91.292 26.4820
1327.054077 91.355 26.4757
1336.670410 91.421 26.4551
1346.356567 91.488 26.4186
1356.112793 91.556 26.3642
1365.939697 91.625 26.2903
1375.837891 91.695 26.1944
1385.807739 91.766 26.0742
1395.849854 91.837 25.9286
1405.964844 91.907 25.7553
1416.152954 91.975 25.5558
1426.415039 92.041 25.3305
1436.751465 92.104 25.0810
1447.162720 92.164 24.8076
1457.649414 92.220 24.5152
1468.212158 92.270 24.2076
1478.851440 92.315 23.8892
1489.567871 92.356 23.5642
1500.361816 92.391 23.2382
1511.234131 92.419 22.9156
1522.185059 92.442 22.6044
1533.215454 92.459 22.3131
1544.325806 92.471 22.0451
1555.516602 92.481 21.8055
1566.788574 92.488 21.5968
1578.142090 92.491 21.4236
1589.578003 92.494 21.2855
1601.096680 92.499 21.1870
1612.698975 92.506 21.1182
1624.385254 92.518 21.0742
1636.156250 92.534 21.0451
1648.012451 92.554 21.0223
1659.954590 92.579 20.9981
1671.983398 92.608 20.9628
1684.099243 92.639 20.9142
1696.302856 92.670 20.8449
1708.594971 92.699 20.7604
1720.976196 92.725 20.6614
1733.447144 92.748 20.5555
1746.008423 92.766 20.4464
1758.660645 92.779 20.3464
1771.404663 92.785 20.2643
1784.240967 92.785 20.2131
1797.170288 92.780 20.2072
1810.193359 92.771 20.2517
1823.310791 92.762 20.3563
1836.523193 92.753 20.5212
1849.831421 92.747 20.7505
1863.236084 92.745 21.0416
1876.737793 92.749 21.3958
1890.337524 92.761 21.8051
1904.035645 92.785 22.2656
1917.833008 92.820 22.7650
1931.730469 92.868 23.2930
1945.728638 92.930 23.8396
1959.828125 93.006 24.3955
1974.029907 93.097 24.9477
1988.334473 93.203 25.4841
2002.742798 93.324 25.9920
2017.255493 93.460 26.4579
2031.873291 93.607 26.8725
2046.597168 93.767 27.2254
2061.427734 93.938 27.5069
2076.365479 94.119 27.7058
2091.411865 94.307 27.8167
2106.566895 94.499 27.8308
2121.832031 94.694 27.7476
2137.207764 94.891 27.5619
2152.694824 95.086 27.2783
2168.294189 95.276 26.8965
2184.006592 95.460 26.4263
2199.832764 95.637 25.8741
2215.773682 95.804 25.2507
2231.830078 95.962 24.5644
2248.002686 96.108 23.8301
2264.292725 96.243 23.0619
2280.700684 96.366 22.2714
2297.227539 96.481 21.4736
2313.874268 96.587 20.6723
2330.641602 96.686 19.8754
2347.530273 96.779 19.0854
2364.541504 96.866 18.3082
2381.676025 96.949 17.5415
2398.934570 97.030 16.7860
2416.318359 97.110 16.0383
2433.827881 97.186 15.2958
2451.464355 97.262 14.5561
2469.228760 97.336 13.8162
2487.121826 97.410 13.0752
2505.144531 97.481 12.3304
2523.297852 97.550 11.5834
2541.582764 97.617 10.8347
2560.000000 97.682 10.0853
2578.550781 97.745 9.3363
2597.236084 97.806 8.5885
2616.056641 97.865 7.8432
2635.013672 97.924 7.1001
2654.108154 97.981 6.3600
2673.340820 98.039 5.6202
2692.713135 98.096 4.8792
2712.225586 98.154 4.1355
2731.879395 98.210 3.3874
2751.675781 98.267 2.6345
2771.615479 98.323 1.8758
2791.699707 98.379 1.1114
2811.929688 98.432 0.3396
2832.305908 98.485 -0.4354
2852.830078 98.536 -1.2097
2873.502930 98.587 -1.9826
2894.325439 98.638 -2.7511
2915.298828 98.690 -3.5185
2936.424316 98.744 -4.2851
2957.702881 98.802 -5.0566
2979.135742 98.862 -5.8368
3000.723633 98.926 -6.6325
3022.468262 98.993 -7.4492
3044.370117 99.064 -8.2940
3066.430908 99.138 -9.1741
3088.651611 99.216 -10.0958
3111.033203 99.295 -11.0656
3133.577148 99.376 -12.0890
3156.284180 99.456 -13.1727
3179.156006 99.536 -14.3194
3202.193359 99.613 -15.5334
3225.397949 99.687 -16.8167
3248.770508 99.755 -18.1743
3272.312500 99.816 -19.6014
3296.024902 99.866 -21.0981
3319.909180 99.905 -22.6547
3343.966797 99.930 -24.2668
3368.198486 99.941 -25.9191
3392.605713 99.934 -27.6005
3417.189941 99.910 -29.2942
3441.952393 99.870 -30.9829
3466.894287 99.813 -32.6555
3492.016846 99.742 -34.2962
3517.321289 99.657 -35.9017
3542.809326 99.562 -37.4628
3568.481934 99.456 -38.9811
3594.340576 99.340 -40.4537
3620.386719 99.217 -41.8853
3646.621582 99.087 -43.2778
3673.046387 98.951 -44.6356
3699.662842 98.807 -45.9656
3726.472168 98.655 -47.2621
3753.475586 98.491 -48.5254
3780.675049 98.317 -49.7436
3808.071289 98.130 -50.9098
3835.666016 97.931 -52.0099
3863.460938 97.719 -53.0324
3891.457275 97.494 -53.9628
3919.656250 97.257 -54.7867
3948.059814 97.010 -55.4920
3976.668945 96.755 -56.0650
4005.485596 96.493 -56.4972
4034.510986 96.226 -56.7767
4063.746582 95.958 -56.9008
4093.194336 95.693 -56.8615
4122.855469 95.433 -56.6634
4152.730957 95.182 -56.3058
4182.823730 94.942 -55.7958
4213.133789 94.718 -55.1342
4243.664062 94.513 -54.3391
4274.415527 94.334 -53.4196
4305.389648 94.182 -52.4042
4336.588379 94.061 -51.3143
4368.013184 93.972 -50.1795
4399.665527 93.919 -49.0253
4431.547363 93.900 -47.8855
4463.660156 93.917 -46.7930
4496.005371 93.965 -45.7759
4528.585449 94.042 -44.8670
4561.401367 94.143 -44.0844
4594.455078 94.266 -43.4535
4627.748535 94.403 -42.9839
4661.283203 94.551 -42.6968
4695.060547 94.702 -42.5821
4729.083008 94.849 -42.6446
4763.352051 94.989 -42.8606
4797.869141 95.119 -43.2153
4832.636719 95.237 -43.6874
4867.655762 95.341 -44.2585
4902.928711 95.431 -44.9047
4938.457520 95.503 -45.6011
4974.243652 95.563 -46.3325
5010.289062 95.610 -47.0765
5046.595703 95.648 -47.8292
5083.165527 95.677 -48.5773
5120.000000 95.700 -49.3263
5157.101562 95.719 -50.0751
5194.472168 95.734 -50.8303
5232.113281 95.745 -51.5985
5270.027344 95.750 -52.3790
5308.216309 95.749 -53.1763
5346.681641 95.740 -53.9820
5385.426270 95.722 -54.7934
5424.451172 95.695 -55.5981
5463.758789 95.657 -56.3889
5503.351562 95.608 -57.1474
5543.230957 95.547 -57.8570
5583.399414 95.477 -58.5040
5623.859375 95.401 -59.0683
5664.611816 95.322 -59.5528
5705.660156 95.246 -59.9487
5747.005859 95.174 -60.2725
5788.650879 95.111 -60.5301
5830.597656 95.058 -60.7440
5872.848633 95.019 -60.9319
5915.405762 94.991 -61.1140
5958.271484 94.975 -61.3140
6001.447266 94.966 -61.5397
6044.936523 94.963 -61.8092
6088.740234 94.961 -62.1164
6132.861816 94.958 -62.4675
6177.303223 94.950 -62.8431
6222.066406 94.934 -63.2315
6267.154297 94.911 -63.6141
6312.568359 94.882 -63.9722
6358.312012 94.847 -64.2935
6404.386719 94.808 -64.5625
6450.795898 94.766 -64.7711
6497.541016 94.724 -64.9051
6544.625000 94.686 -64.9669
6592.049805 94.655 -64.9524
6639.818359 94.633 -64.8676
6687.933594 94.622 -64.7141
6736.396973 94.626 -64.5012
6785.211426 94.646 -64.2325
6834.379883 94.686 -63.9266
6883.904785 94.750 -63.5968
6933.788574 94.838 -63.2637
6984.033691 94.952 -62.9436
7034.642578 95.093 -62.6633
7085.618652 95.264 -62.4438
7136.963867 95.462 -62.3193
7188.681152 95.689 -62.3238
7240.773438 95.939 -62.4788
7293.243164 96.206 -62.8129
7346.092773 96.489 -63.3388
7399.325684 96.783 -64.0754
7452.944336 97.083 -65.0336
7506.951172 97.387 -66.2307
7561.350098 97.689 -67.6670
7616.142578 97.985 -69.3517
7671.332031 98.269 -71.2755
7726.921875 98.535 -73.4360
7782.914551 98.782 -75.8202
7839.312500 99.005 -78.4204
7896.119629 99.201 -81.2207
7953.337891 99.368 -84.2115
8010.971191 99.500 -87.3659
8069.021973 99.595 -90.6649
8127.493164 99.650 -94.0747
8186.388672 99.663 -97.5665
8245.710938 99.634 -101.1072
8305.461914 99.562 -104.6662
8365.647461 99.446 -108.2074
8426.267578 99.285 -111.6946
8487.328125 99.081 -115.0964
8548.831055 98.838 -118.3768
8610.779297 98.556 -121.5109
8673.176758 98.236 -124.4670
8736.026367 97.885 -127.2286
8799.331055 97.505 -129.7699
8863.094727 97.100 -132.0864
8927.320312 96.676 -134.1634
8992.010742 96.236 -136.0059
9057.170898 95.786 -137.6116
9122.802734 95.327 -138.9873
9188.910156 94.865 -140.1387
9255.497070 94.400 -141.0676
9322.566406 93.934 -141.7812
9390.121094 93.469 -142.2690
9458.166016 93.006 -142.5291
9526.704102 92.545 -142.5426
9595.738281 92.089 -142.2928
9665.273438 91.643 -141.7715
9735.311523 91.212 -140.9570
9805.857422 90.808 -139.8726
9876.915039 90.439 -138.5119
9948.487305 90.120 -136.9420
10020.578125 89.865 -135.1975
10093.191406 89.679 -133.3710
10166.331055 89.574 -131.5346
10240.000000 89.543 -129.7849
10314.203125 89.592 -128.2209
10388.944336 89.699 -126.9075
10464.226562 89.854 -125.9409
10540.054688 90.036 -125.3246
10616.432617 90.226 -125.1080
10693.363281 90.412 -125.2501
10770.852539 90.578 -125.7496
10848.902344 90.716 -126.5351
10927.517578 90.815 -127.5609
11006.703125 90.873 -128.7463
11086.461914 90.885 -130.0165
11166.798828 90.857 -131.3079
11247.718750 90.790 -132.5458
11329.223633 90.691 -133.6894
11411.320312 90.562 -134.6789
11494.011719 90.413 -135.4981
11577.301758 90.251 -136.1071
11661.195312 90.087 -136.5173
11745.697266 89.930 -136.7162
11830.811523 89.788 -136.7354
11916.542969 89.670 -136.5885
12002.894531 89.581 -136.3178
12089.873047 89.529 -135.9546
12177.480469 89.516 -135.5454
12265.723633 89.546 -135.1313
12354.606445 89.617 -134.7598
12444.132812 89.733 -134.4768
12534.308594 89.887 -134.3274
12625.136719 90.079 -134.3617
12716.624023 90.301 -134.6111
12808.773438 90.546 -135.1164
12901.591797 90.806 -135.8977
12995.082031 91.078 -136.9869
13089.250000 91.350 -138.3892
13184.099609 91.613 -140.1275
13279.636719 91.858 -142.1796
13375.867188 92.076 -144.5452
13472.793945 92.260 -147.1803
13570.422852 92.403 -150.0598
13668.759766 92.503 -153.1263
13767.809570 92.553 -156.3383
13867.577148 92.552 -159.6228
13968.067383 92.495 -162.9164
14069.285156 92.387 -166.1479
14171.237305 92.229 -169.2374
14273.927734 92.032 -172.1482
14377.362305 91.803 -174.8132
14481.546875 91.554 -177.2441
14586.486328 91.299 -179.4104
14692.185547 91.050 178.6279
14798.651367 90.823 176.8528
14905.888672 90.624 175.1707
15013.902344 90.468 173.5090
15122.700195 90.347 171.7851
15232.285156 90.259 169.9018
15342.664062 90.190 167.8293
15453.843750 90.130 165.4931
15565.829102 90.061 162.9305
15678.625000 89.966 160.1271
15792.239258 89.839 157.1653
15906.675781 89.665 154.0975
16021.942383 89.449 151.0007
16138.043945 89.186 147.9627
16254.986328 88.887 145.0049
16372.777344 88.559 142.1934
16491.421875 88.215 139.4808
16610.923828 87.869 136.8674
16731.294922 87.525 134.2751
16852.535156 87.193 131.6482
16974.656250 86.868 128.9200
17097.662109 86.553 126.0049
17221.558594 86.229 122.9044
17346.353516 85.882 119.5633
17472.052734 85.494 116.0676
17598.662109 85.050 112.4437
17726.189453 84.539 108.8179
17854.640625 83.949 105.2787
17984.021484 83.277 101.9666
18114.341797 82.511 99.0134
18245.605469 81.661 96.5335
18377.820312 80.725 94.6651
18510.994141 79.722 93.4679
18645.132812 78.662 93.0555
18780.242188 77.569 93.4040
18916.332031 76.459 94.5662
19053.408203 75.367 96.4206
19191.476562 74.326 98.9130
19330.546875 73.355 101.8938
19470.623047 72.479 105.2418
19611.714844 71.714 108.8153
19753.830078 71.091 112.4709
19896.974609 70.591 116.0923
